Asteroid: EV5 state wrt Sol barycenter (x(km) y(km) z(km) vx(km/sec) vy(km/sec) vz(km/sec)
-48983041.3728768229484558 -131054814.2881106287240982 7394490.8872845703735948 29.6627233850860748 -8.6270689533327527 -3.7984907484812096
-48139993.6845303997397423 -131297178.2857440114021301 7286511.7152444971725345 29.7293008535485868 -8.4472272299362139 -3.8085545229020230
-47295926.8008126690983772 -131534190.6823067665100098 7178358.4188399631530046 29.7947549325923831 -8.2669656731811312 -3.8184751594470909
-46450873.9710448086261749 -131765850.6885584294795990 7070035.3244199510663748 29.8590830330267352 -8.0862914137392217 -3.8282522656821980
-45604868.3787181824445724 -131992157.7163653224706650 6961546.7513085268437862 29.9222826102016413 -7.9052115986077398 -3.8378854548508050
-44757943.1404819861054420 -132213111.3774534612894058 6852897.0116632878780365 29.9843511641085172 -7.7237333908265446 -3.8473743458893588
-43910131.3051500320434570 -132428711.4821599125862122 6744090.4103363091126084 30.0452862394790579 -7.5418639691949636 -3.8567185634423518
-43061465.8527225553989410 -132638958.0381831973791122 6635131.2447370309382677 30.1050854258824003 -7.3596105279876074 -3.8659177378771838
-42211979.6934269443154335 -132843851.2493325173854828 6526023.8046976057812572 30.1637463578204255 -7.1769802766699922 -3.8749715052987739
-41361705.6667732894420624 -133043391.5142767280340195 6416772.3723401855677366 30.2212667148214003 -6.9939804396131500 -3.8838795075639641
-40510676.5406288430094719 -133237579.4252922981977463 6307381.2219466380774975 30.2776442215316806 -6.8106182558080466 -3.8926413922956749
-39658925.0103069990873337 -133426415.7670116424560547 6197854.6198301957920194 30.3328766478058114 -6.6269009785790232 -3.9012568128968579
-38806483.6976749002933502 -133609901.5151704549789429 6088196.8242094749584794 30.3869618087946520 -6.4428358752970940 -3.9097254285641920
-37953385.1502754315733910 -133788037.8353561609983444 5978412.0850844420492649 30.4398975650319024 -6.2584302270922478 -3.9180469043015811
-37099661.8404676094651222 -133960826.0817555934190750 5868504.6441146982833743 30.4916818225186468 -6.0736913285656033 -3.9262209109333899
-36245346.1645816937088966 -134128267.7959037721157074 5758478.7344997562468052 30.5423125328062142 -5.8886264875007921 -3.9342471251174711
-35390470.4420907497406006 -134290364.7054334580898285 5648338.5808614287525415 30.5917876930772650 -5.7032430245747907 -3.9421252293579627
-34535066.9147992506623268 -134447118.7228245735168457 5538088.3991284379735589 30.6401053462249280 -5.5175482730685150 -3.9498549120178383
-33679167.7460458800196648 -134598531.9441557526588440 5427732.3964229105040431 30.6872635809302849 -5.3315495785765457 -3.9574358673312373
-32822805.0199239701032639 -134744606.6478560566902161 5317274.7709491616114974 30.7332605317379333 -5.1452542987167327 -3.9648677954155609
-31966010.7405158802866936 -134885345.2934587597846985 5206719.7118842964991927 30.7780943791298185 -4.9586698028389744 -3.9721504022833352
-31108816.8311448022723198 -135020750.5203562974929810 5096071.3992711240425706 30.8217633495971768 -4.7718034717338824 -3.9792833998538386
-30251255.1336399316787720 -135150825.1465565562248230 4985334.0039127925410867 30.8642657157107152 -4.5846626973406366 -3.9862665059645019
-29393357.4076192602515221 -135275572.1674415767192841 4874511.6872697584331036 30.9055997961889091 -4.3972548824547530 -3.9930994443820609
-28535155.3297854438424110 -135394994.7545279860496521 4763608.6013584565371275 30.9457639559645656 -4.2095874404350813 -3.9997819448134968
-27676680.4932387024164200 -135509096.2542291879653931 4652628.8886522250249982 30.9847566062494408 -4.0216677949107318 -4.0063137429167126
-26817964.4068029001355171 -135617880.1866207122802734 4541576.6819839458912611 31.0225762045971294 -3.8335033794872118 -4.0126945803110052
-25959038.4943683147430420 -135721350.2442069649696350 4430456.1044508954510093 31.0592212549640720 -3.6451016374525711 -4.0189242045872753
-25099934.0942477062344551 -135819510.2906912565231323 4319271.2693213345482945 31.0946903077687047 -3.4564700214828594 -4.0250023693180141
-24240682.4585474133491516 -135912364.3597485721111298 4208026.2799430927261710 31.1289819599488595 -3.2676159933472597 -4.0309288340670575
-23381314.7525538206100464 -135999916.6538008153438568 4096725.2296541556715965 31.1620948550172088 -3.0785470236131118 -4.0367033643990888
-22521862.0541325807571411 -136082171.5427955090999603 3985372.2016949700191617 31.1940276831149639 -2.8892705913501491 -4.0423257318889201
-21662355.3531439006328583 -136159133.5629872679710388 3873971.2691228250041604 31.2247791810636492 -2.6997941838348947 -4.0477957141305190
-20802825.5508701801300049 -136230807.4157230556011200 3762526.4947279114276171 31.2543481324151209 -2.5101252962542642 -4.0531130947458163
-19943303.4594594538211823 -136297197.9662304818630219 3651041.9309514323249459 31.2827333674996382 -2.3202714314092781 -4.0582776633932571
-19083819.8013807535171509 -136358310.2424098849296570 3539521.6198053192347288 31.3099337634721770 -2.1302400994180530 -4.0632892157761287
-18224405.2088952809572220 -136414149.4336299896240234 3427969.5927940160036087 31.3359482443567892 -1.9400388174189640 -4.0681475536506335
-17365090.2235391885042191 -136464720.8895277380943298 3316389.8708378272131085 31.3607757810892451 -1.7496751092730349 -4.0728524848337404
-16505905.2956217154860497 -136510030.1188116073608398 3204786.4641982754692435 31.3844153915576456 -1.5591565052665572 -4.0774038232107790
-15646880.7837348505854607 -136550082.7880694866180420 3093163.3724050102755427 31.4068661406413732 -1.3684905418129887 -4.0818013887428091
-14788046.9542779624462128 -136584884.7205803394317627 2981524.5841846922412515 31.4281271402479874 -1.1776847611550085 -4.0860450074737331
-13929433.9809943586587906 -136614441.8951307833194733 2869874.0773914651945233 31.4481975493484143 -0.9867467110661021 -4.0901345115371877
-13071071.9445207417011261 -136638760.4448353946208954 2758215.8189391354098916 31.4670765740102212 -0.7956839445519073 -4.0940697391631771
-12212990.8319507241249084 -136657846.6559622883796692 2646553.7647352432832122 31.4847634674289623 -0.6045040195516158 -4.0978505346844756
-11355220.5364092886447906 -136671706.9667629599571228 2534891.8596165692433715 31.5012575299577939 -0.4132144986387960 -4.1014767485427841
-10497790.8566416427493095 -136680347.9663070142269135 2423234.0372865581884980 31.5165581091351008 -0.2218229487224495 -4.1049482372946446
-9640731.4966125860810280 -136683776.3933219313621521 2311584.2202541744336486 31.5306645997103203 -0.0303369407474658 -4.1082648636171184
-8784072.0651201307773590 -136681999.1350377202033997 2199946.3197746202349663 31.5435764436678951 0.1612359506046435 -4.1114264963132161
-7927842.0754193365573883 -136675023.2260367274284363 2088324.2357914438471198 31.5552931302493249 0.3528881472156016 -4.1144330103170850
-7072070.9448600858449936 -136662855.8471087813377380 1976721.8568805083632469 31.5658141959733953 0.5446120678299060 -4.1172842866989621
-6216787.9945347830653191 -136645504.3241113424301147 1865143.0601952709257603 31.5751392246544924 0.7364001283549602 -4.1199802126698728
-5362022.4489397630095482 -136622976.1268355548381805 1753591.7114139255136251 31.5832678474190800 0.9282447421608602 -4.1225206815860957
-4507803.4356464371085167 -136595278.8678773641586304 1642071.6646878188475966 31.5901997427202659 1.1201383203806934 -4.1249055929533807
-3654159.9849855601787567 -136562420.3015147745609283 1530586.7625916544348001 31.5959346363505631 1.3120732722105704 -4.1271348524309239
-2801121.0297418311238289 -136524408.3225898444652557 1419140.8360750554129481 31.6004723014527045 1.5040420052099783 -4.1292083718350998
-1948715.4048594832420349 -136481250.9653979837894440 1307737.7044156389310956 31.6038125585286238 1.6960369256021846 -4.1311260691429501
-1096971.8471603468060493 -136432956.4025816321372986 1196381.1751737240701914 31.6059552754465756 1.8880504385744459 -4.1328878684954269
-245918.9950709044933319 -136379532.9440307021141052 1085075.0441482830792665 31.6069003674463005 2.0800749485786483 -4.1344937002003928
604414.6116378977894783 -136320989.0357890725135803 973823.0953345969319344 31.6066477971424717 2.2721028596315680 -4.1359435007353813
1454000.5321021080017090 -136257333.2589670419692993 862629.1008830824866891 31.6051975745261018 2.4641265756155359 -4.1372372127501080
2302810.4246038496494293 -136188574.3286598920822144 751496.8210598053410649 31.6025497569641729 2.6561385005787415 -4.1383747850687369
3150816.0468018352985382 -136114721.0928729772567749 640430.0042081344872713 31.5987044491973599 2.8481310390358914 -4.1393561726919073
3997989.2559497281908989 -136035782.5314531624317169 529432.3867120314389467 31.5936618033358982 3.0400965962684570 -4.1401813367985127
4844302.0091064870357513 -135951767.7550264596939087 418507.6929604588076472 31.5874220188535659 3.2320275786253347 -4.1408502447472388
5689726.3633346036076546 -135862686.0039425790309906 307659.6353133786469698 31.5799853425797679 3.4239163938230099 -4.1413628700778489
6534234.4758905619382858 -135768546.6472254395484924 196891.9140688478946686 31.5713520686898157 3.6157554512460752 -4.1417191925122392
7377798.6044037714600563 -135669359.1815312504768372 86208.2174316504970193 31.5615225386932465 3.8075371622473533 -4.1419191979552323
8220391.1070471182465553 -135565133.2301123738288879 -24387.7785169240087271 31.5504971414203510 3.9992539404481189 -4.1419628784951401
9061984.4426980987191200 -135455878.5417885184288025 -134892.4098480241373181 31.5382763130067580 4.1908982020383139 -4.1418502324040780
9902551.1710896119475365 -135341604.9899246692657471 -245302.0248127672821283 31.5248605368762149 4.3824623660763269 -4.1415812641380265
10742063.9529530853033066 -135222322.5714159011840820 -355612.9838687442243099 31.5102503437214523 4.5739388547891195 -4.1411559843366614
11580495.5501510426402092 -135098041.4056789875030518 -465821.6597050530835986 31.4944463114831592 4.7653200938717202 -4.1405744098229293
12417818.8258024156093597 -134968771.7336513102054596 -575924.4372663879767060 31.4774490653271783 4.9565985127871208 -4.1398365636023851
13254006.7443973794579506 -134834523.9167967438697815 -685917.7137756543233991 31.4592592776197435 5.1477665450654779 -4.1389424748622776
14089032.3719054311513901 -134695308.4361186623573303 -795797.8987556872889400 31.4398776679008805 5.3388166286036771 -4.1378921789704020
14922868.8758730813860893 -134551135.8911797404289246 -905561.4140495369210839 31.4193050028559568 5.5297412059642266 -4.1366857174736920
15755489.5255151391029358 -134402016.9991298615932465 -1015204.6938398843631148 31.3975420962853349 5.7205327246744329 -4.1353231380965827
16586867.6917959228157997 -134247962.5937404632568359 -1124724.1846670582890511 31.3745898090722122 5.9111836375249478 -4.1338044947391204
17416976.8475041687488556 -134088983.6244464367628098 -1234116.3454462205991149 31.3504490491485264 6.1016864028685376 -4.1321298474748316
18245790.5673184692859650 -133925091.1553957462310791 -1343377.6474832091480494 31.3251207714590834 6.2920334849181963 -4.1302992625483448
19073282.5278658494353294 -133756296.3645060658454895 -1452504.5744894612580538 31.2986059779237493 6.4822173540453552 -4.1283128123727737
19899426.5077728182077408 -133582610.5425287038087845 -1561493.6225958960130811 31.2709057173978131 6.6722304870777815 -4.1261705755268459
20724196.3877077400684357 -133404045.0921207666397095 -1670341.3003655998036265 31.2420210856305367 6.8620653675970171 -4.1238726367518019
21547566.1504174023866653 -133220611.5269238352775574 -1779044.1288056988269091 31.2119532252217695 7.0517144862359036 -4.1214190869480394
22369509.8807546496391296 -133032321.4706512838602066 -1887598.6413780134171247 31.1807033255767720 7.2411703409754296 -4.1188100231715188
23190001.7657005563378334 -132839186.6561820507049561 -1996001.3840089458972216 31.1482726228591531 7.4304254374417003 -4.1160455486299199
24009016.0943779274821281 -132641218.9246631264686584 -2104248.9150981605052948 31.1146623999419880 7.6194722892021804 -4.1131257726785657
24826527.2580596208572388 -132438430.2246188819408417 -2212337.8055265489965677 31.0798739863570432 7.8083034180620530 -4.1100508108160918
25642509.7501684129238129 -132230832.6110683977603912 -2320264.6386630376800895 31.0439087582422104 7.9969113543598542 -4.1068207846798810
26456938.1662715598940849 -132018438.2446508407592773 -2428026.0103706214576960 31.0067681382870717 8.1852886372630191 -4.1034358220412468
27269787.2040685415267944 -131801259.3907576799392700 -2535618.5290114646777511 30.9684535956765927 8.3734278150630885 -4.0998960568003850
28081031.6633721590042114 -131579308.4186736941337585 -2643038.8154510837048292 30.9289666460330253 8.5613214454704067 -4.0962016289810723
28890646.4460832625627518 -131352597.8007251024246216 -2750283.5030616158619523 30.8883088513559585 8.7489620959084675 -4.0923526847251299
29698606.5561600103974342 -131121140.1114359349012375 -2857349.2377243498340249 30.8464818199605304 8.9363423438079970 -4.0883493762866419
30504887.0995811894536018 -130884948.0266915261745453 -2964232.6778313741087914 30.8034872064137630 9.1234547769006298 -4.0841918620259303
31309463.2843023985624313 -130644034.3229109346866608 -3070930.4942862866446376 30.7593267114692068 9.3102919935119370 -4.0798803064032967
32112310.4202085137367249 -130398411.8762261867523193 -3177439.3705043215304613 30.7140020819995598 9.4968466028544469 -4.0754148799725094
32913403.9190585687756538 -130148093.6616700887680054 -3283756.0024114446714520 30.6675151109276243 9.6831112253197791 -4.0707957593740600
33712719.2944269552826881 -129893092.7523716092109680 -3389877.0984429018571973 30.6198676371553731 9.8690784927707593 -4.0660231273281777
34510232.1616375744342804 -129633422.3187594115734100 -3495799.3795407898724079 30.5710615454912187 10.0547410488327031 -4.0610971726276004
35305918.2376944795250893 -129369095.6277728825807571 -3601519.5791511125862598 30.5210987665754025 10.2400915491846050 -4.0560180901301024
36099753.3412058800458908 -129100126.0420817732810974 -3707034.4432198982685804 30.4699812768037042 10.4251226618494783 -4.0507860807507923
36891713.3923041373491287 -128826527.0193131566047668 -3812340.7301887525245547 30.4177110982492067 10.6098270674844848 -4.0454013514541636
37681774.4125608429312706 -128548312.1112866103649139 -3917435.2109896903857589 30.3642902985823184 10.7941974596704906 -4.0398641152459067
38469912.5248968526721001 -128265494.9632572233676910 -4022314.6690392596647143 30.3097209909889642 10.9782265452010517 -4.0341745911644784
39256103.9534874930977821 -127978089.3131670355796814 -4126975.9002319760620594 30.2540053340870543 11.1619070443708850 -4.0283330042724490
40040325.0236639156937599 -127686108.9909037351608276 -4231415.7129331836476922 30.1971455318410236 11.3452316912638373 -4.0223395856475888
40822552.1618101522326469 -127389567.9175678193569183 -4335630.9279713062569499 30.1391438334746944 11.5281932340404385 -4.0161945723737329
41602761.8952547013759613 -127088480.1047475934028625 -4439618.3786293175071478 30.0800025333822774 11.7107844352245252 -4.0098982075313980
42380930.8521598204970360 -126782859.6538020670413971 -4543374.9106358513236046 30.0197239710376280 11.8929980719898030 -4.0034507401881712
43157035.7614049389958382 -126472720.7551521658897400 -4646897.3821554826572537 29.9583105309017057 12.0748269364453034 -3.9968524253888593
43931053.4524680227041245 -126158077.6875791996717453 -4750182.6637786841019988 29.8957646423282135 12.2562638359207554 -3.9901035241453897
44702960.8553011715412140 -125838944.8175322711467743 -4853227.6385109731927514 29.8320887794675649 12.4373015932508775 -3.9832043034264988
45472735.0002046972513199 -125515336.5984426885843277 -4956029.2017617849633098 29.7672854611689388 12.6179330470595055 -3.9761550361471611
46240353.0176957398653030 -125187267.5700471401214600 -5058584.2613325873389840 29.7013572508807115 12.7981510520426944 -3.9689560011577996
47005792.1383745446801186 -124854752.3577182888984680 -5160889.7374046295881271 29.6343067565490124 12.9779484792514381 -3.9616074832332524
47769029.6927875056862831 -124517805.6718034446239471 -5262942.5625261841341853 29.5661366305145492 13.1573182163737386 -3.9541097730615062
48530043.1112864091992378 -124176442.3069714307785034 -5364739.6815992668271065 29.4968495694077077 13.3362531680158813 -3.9464631672322028
49288809.9238846227526665 -123830677.1415669918060303 -5466278.0518658803775907 29.4264483140419060 13.5147462559830664 -3.9386679682249004
50045307.7601107731461525 -123480525.1369735002517700 -5567554.6428938647732139 29.3549356493051334 13.6927904195594721 -3.9307244843971150
50799514.3488596826791763 -123126001.3369830846786499 -5668566.4365623341873288 29.2823144040497816 13.8703786157875939 -3.9226330299721139
51551407.5182394236326218 -122767120.8671753704547882 -5769310.4270465541630983 29.2085874509808185 14.0475038197467086 -3.9143939250264972
52300965.1954173371195793 -122403898.9343031942844391 -5869783.6208026148378849 29.1337577065420277 14.2241590248309393 -3.9060074954775250
53048165.4064619392156601 -122036350.8256870806217194 -5969983.0365515053272247 29.0578281308007718 14.4003372430262377 -3.8974740730702333
53792986.2761838063597679 -121664491.9086168408393860 -6069905.7052630074322224 28.9808017273307925 14.5760315051869735 -3.8887939953643058
54535406.0279728993773460 -121288337.6297616511583328 -6169548.6701390417292714 28.9026815430934896 14.7512348613114685 -3.8799676057207257
55275402.9836348369717598 -120907903.5145871937274933 -6268908.9865968562662601 28.8234706683172845 14.9259403808170674 -3.8709952532881857
56012955.5632239803671837 -120523205.1667815148830414 -6367983.7222516862675548 28.7431722363754965 15.1001411528141674 -3.8618772929892868
56748042.2848752662539482 -120134258.2676877826452255 -6466769.9568992275744677 28.6617894236623272 15.2738302863796296 -3.8526140855064925
57480641.7646340802311897 -119741078.5757452547550201 -6565264.7824977990239859 28.5793254494671984 15.4470009108294359 -3.8432059972678587
58210732.7162840664386749 -119343681.9259380102157593 -6663465.3031501518562436 28.4957835758474332 15.6196461759904270 -3.8336534004325418
58938293.9511730447411537 -118942084.2292512953281403 -6761368.6350849736481905 28.4111671074992280 15.7917592524712145 -3.8239566728760805
59663304.3780379369854927 -118536301.4721355140209198 -6858971.9066382413730025 28.3254793916269207 15.9633333319323842 -3.8141161981754448
60385743.0028283745050430 -118126349.7159778475761414 -6956272.2582342885434628 28.2387238178105378 16.1343616273559221 -3.8041323655938579
61105588.9285275191068649 -117712245.0965818464756012 -7053266.8423664988949895 28.1509038178718001 16.3048373733134682 -3.7940055700654085
61822821.3549736365675926 -117294003.8236539661884308 -7149952.8235780047252774 28.0620228657382569 16.4747538262341635 -3.7837362121794169
62537419.5786784961819649 -116871642.1802987009286880 -7246327.3784419326111674 27.9720844773060016 16.6441042646712276 -3.7733246981646000
63249362.9926465898752213 -116445176.5225200951099396 -7342387.6955416928976774 27.8810922103004444 16.8128819895679911 -3.7627714398729903
63958631.0861914753913879 -116014623.2787319123744965 -7438130.9754508296027780 27.7890496641357174 16.9810803245227397 -3.7520768547636552
64665203.4447530880570412 -115579998.9492743015289307 -7533554.4307129504159093 27.6959604797721717 17.1486926160529940 -3.7412413658861743
65369059.7497126236557961 -115141320.1059388071298599 -7628655.2858212776482105 27.6018283395724424 17.3157122338585303 -3.7302654018639112
66070179.7782078906893730 -114698603.3915002942085266 -7723430.7771981870755553 27.5066569671557488 17.4821325710837385 -3.7191493968770564
