Asteroid: EV5 state wrt Sol barycenter ( t(sec) x(km) y(km) z(km) vx(km/sec) vy(km/sec) vz(km/sec)
0.0000000000000000 78587177.1959869414567947 -105749663.9029653966426849 -9423514.4973013065755367 25.5520432377539137 20.4601164327786051 -3.4874539071287076
86400.0000000000000000 80777815.0285644382238388 -103959294.8358673751354218 -9722782.3548409361392260 25.1552304297413016 20.9822803757542431 -3.4397803249779417
172800.0000000000000000 82933669.0687092840671539 -102124160.3529810756444931 -10017863.4737469628453255 24.7468920572482673 21.4963021328584887 -3.3905420737122030
259200.0000000000000000 85053751.2149805128574371 -100244977.0388828814029694 -10308623.5697388071566820 24.3272081324643352 22.0018791950848183 -3.3397602734533951
345600.0000000000000000 87137089.3324511051177979 -98322487.4214508235454559 -10594930.2386829629540443 23.8963682179420509 22.4987135956897255 -3.2874573238242428
432000.0000000000000000 89182728.0722859799861908 -96357459.5629728585481644 -10876653.0665425881743431 23.4545712945597593 22.9865122900905519 -3.2336568896769338
518400.0000000000000000 91189729.6791350543498993 -94350686.6186145097017288 -11153663.7379913907498121 23.0020256115478183 23.4649875313855105 -3.1783838844507932
604800.0000000000000000 93157174.7847985327243805 -92302986.3626676052808762 -11425836.1434875763952732 22.5389485187309262 23.9338572404876402 -3.1216644511711018
691200.0000000000000000 95084163.1866381168365479 -90215200.6830874383449554 -11693046.4846049807965755 22.0655662812033242 24.3928453698693417 -3.0635259411095510
777600.0000000000000000 96969814.6092267483472824 -88088195.0449144691228867 -11955173.3774204272776842 21.5821138767171554 24.8416822599224432 -3.0039968901351770
864000.0000000000000000 98813269.4477584213018417 -85922857.9232607185840607 -12212097.9537593796849251 21.0888347761280102 25.2801049869533720 -2.9431069927930276
950400.0000000000000000 100613689.4917701035737991 -83720100.2066264748573303 -12463703.9601053372025490 20.5859807073042234 25.7078577018507666 -2.8808870741561075
1036800.0000000000000000 102370258.6277683824300766 -81480854.5713917165994644 -12709877.8539830222725868 20.0738114029674790 26.1246919584867960 -2.8173690595042746
1123200.0000000000000000 104082183.5193945467472076 -79206074.8284102678298950 -12950508.8976302165538073 19.5525943329929426 26.5303670309402975 -2.7525859418918803
1209600.0000000000000000 105748694.2638084739446640 -76896735.2427119314670563 -13185489.2487785033881664 19.0226044217554460 26.9246502186617285 -2.6865717476737760
1296000.0000000000000000 107369045.0230298787355423 -74553829.8273878097534180 -13414714.0483702309429646 18.4841237511631142 27.3073171387371119 -2.6193615000667565
1382400.0000000000000000 108942514.6290272027254105 -72178371.6128114610910416 -13638081.5050452332943678 17.9374412500747802 27.6781520044473126 -2.5509911808309695
1468800.0000000000000000 110468407.1614106595516205 -69771391.8924127668142319 -13855492.9762388132512569 17.3828523708472424 28.0369478893636099 -2.4814976901626449
1555200.0000000000000000 111946052.4966518282890320 -67333939.4462826848030090 -14066853.0457408130168915 16.8206587538055423 28.3835069762689223 -2.4109188048960055
1641600.0000000000000000 113374806.8278213739395142 -64867079.7439523786306381 -14272069.5975739210844040 16.2511678804746396 28.7176407902442499 -2.3392931351185027
1728000.0000000000000000 114754053.1539121419191360 -62371894.1277391165494919 -14471053.8860589563846588 15.6746927164496945 29.0391704153149846 -2.2666600793090050
1814400.0000000000000000 116083201.7378913164138794 -59849478.9781038612127304 -14663720.6019443776458502 15.0915513448194432 29.3479266941087040 -2.1930597781138670
1900800.0000000000000000 117361690.5327062457799911 -57300944.8625106960535049 -14849987.9344875384122133 14.5020665910888766 29.6437504100354978 -2.1185330668803912
1987200.0000000000000000 118588985.5745516121387482 -54727415.6693155914545059 -15029777.6293855533003807 13.9065656405751223 29.9264924515638633 -2.0431214270712914
2073600.0000000000000000 119764581.3427894860506058 -52130027.7282499745488167 -15203015.0424645673483610 13.3053796492743093 30.1960139582283738 -1.9668669366873572
2160000.0000000000000000 120888001.0860037207603455 -49509928.9190881103277206 -15369629.1890474408864975 12.6988433492148438 30.4521864480706341 -1.8898122198283311
2246400.0000000000000000 121958797.1137551367282867 -46868277.7701143547892570 -15529552.7889309972524643 12.0872946493274149 30.6948919262807784 -1.8120003955244479
2332800.0000000000000000 122976551.0536956191062927 -44206242.5480234101414680 -15682722.3069155942648649 11.4710742328711994 30.9240229748730115 -1.7334750259728033
2419200.0000000000000000 123940874.0737888514995575 -41525000.3408942669630051 -15829077.9888415262103081 10.8505251524593884 31.1394828232961132 -1.6542800643136963
2505600.0000000000000000 124851407.0694749355316162 -38825736.1358892768621445 -15968563.8930982872843742 10.2259924237279698 31.3411853999460313 -1.5744598020827314
2592000.0000000000000000 125707820.8157070428133011 -36109641.8933259472250938 -16101127.9175845980644226 9.5978226186858961 31.5290553646139742 -1.4940588164741939
2678400.0000000000000000 126509816.0838763862848282 -33377915.6187667585909367 -16226721.8221086263656616 8.9663634597759803 31.7030281219686572 -1.4131219175506011
2764800.0000000000000000 127257123.7237318903207779 -30631760.4347558692097664 -16345301.2462296858429909 8.3319634156606792 31.8630498162357370 -1.3316940955318159
2851200.0000000000000000 127949504.7104857712984085 -27872383.6538219824433327 -16456825.7225538343191147 7.6949712997299571 32.0090773072992576 -1.2498204682954202
2937600.0000000000000000 128586750.1573832035064697 -25100995.8543369919061661 -16561258.6855073124170303 7.0557358723043819 32.1410781285111966 -1.1675462292173275
3024000.0000000000000000 129168681.2940960973501205 -22318809.9607987701892853 -16658567.4756226558238268 6.4146054474811045 32.2590304265530250 -1.0849165954788051
3110400.0000000000000000 129695149.4113821387290955 -19527040.3300701677799225 -16748723.3393831290304661 5.7719275055392725 32.3629228837493201 -1.0019767569623952
3196800.0000000000000000 130166035.7725274115800858 -16726901.8450735360383987 -16831701.4246814362704754 5.1280483117884259 32.4527546232862392 -0.9187718258553774
3283200.0000000000000000 130581251.4921670258045197 -13919609.0173936933279037 -16907480.7719589322805405 4.4833125427051712 32.5285350978381018 -0.8353467870747906
3369600.0000000000000000 130940737.3831474184989929 -11106375.1002005636692047 -16976044.3011009469628334 3.8380629201642034 32.5902839621516236 -0.7517464496232946
3456000.0000000000000000 131244463.7721638679504395 -8288411.2128538712859154 -17037378.7941732518374920 3.1926398545270285 32.6380309301813085 -0.6680153989799229
3542400.0000000000000000 131492430.2849693894386292 -5466925.4784943014383316 -17091474.8740933462977409 2.5473810973055908 32.6718156174089174 -0.5841979506240564
3628800.0000000000000000 131684665.6020117253065109 -2643122.1758756041526794 -17138326.9793385602533817 1.9026214040720131 32.6916873690162362 -0.5003381047852600
3715200.0000000000000000 131821227.1854109168052673 181799.0933725982904434 -17177933.3348005674779415 1.2586922082355372 32.6977050746128484 -0.4164795025053138
3801600.0000000000000000 131902200.9782415926456451 3006644.2209183797240257 -17210295.9189033322036266 0.6159213062584801 32.6899369702488514 -0.3326653830925925
3888000.0000000000000000 131927701.0771306455135345 5830225.3902739807963371 -17235420.4271078556776047 -0.0253674451699410 32.6684604284672275 -0.2489385430422275
3974400.0000000000000000 131897869.3792246133089066 8651361.8567138686776161 -17253316.2319334372878075 -0.6648544195342616 32.6333617371711426 -0.1653412964889698
4060800.0000000000000000 131812875.2046181857585907 11468880.7076312676072121 -17263996.3396304324269295 -1.3022244980535174 32.5847358680982495 -0.0819154372528672
4147200.0000000000000000 131672914.8953694701194763 14281617.6024715974926949 -17267477.3436445295810699 -1.9371673340411171 32.5226862357068853 0.0012977974689943
4233600.0000000000000000 131478211.3922557979822159 17088417.4914493411779404 -17263779.3750167600810528 -2.5693776037556759 32.4473244472881106 0.0842577617182494
4320000.0000000000000000 131229013.7904494404792786 19888135.3123232424259186 -17252926.0498673394322395 -3.1985552434864672 32.3587700451228670 0.1669244336587763
4406400.0000000000000000 130925596.8753111660480499 22679636.6645812839269638 -17234944.4141143523156643 -3.8244056726707871 32.2571502415053430 0.2492584466952439
4492800.0000000000000000 130568260.6395151913166046 25461798.4604531452059746 -17209864.8855810351669788 -4.4466400028901454 32.1425996474514761 0.3312211188003977
4579200.0000000000000000 130157329.7827315032482147 28233509.5522380098700523 -17177721.1936472952365875 -5.0649752326424533 32.0152599959069448 0.4127744800314117
4665600.0000000000000000 129693153.1950957477092743 30993671.3355105817317963 -17138550.3166025504469872 -5.6791344278368374 31.8752798602600294 0.4938812982221226
4752000.0000000000000000 129176103.4257019162178040 33741198.3278317153453827 -17092392.4168578237295151 -6.2888468880036292 31.7228143689537632 0.5745051028440478
4838400.0000000000000000 128606576.1373502463102341 36475018.7226616218686104 -17039290.7741754204034805 -6.8938482982582894 31.5580249169774092 0.6546102070352109
4924800.0000000000000000 127984989.5487784147262573 39194074.9182375222444534 -16979291.7170743457973003 -7.4938808671006623 31.3810788750004406 0.7341617278014938
5011200.0000000000000000 127311783.8655937612056732 41897324.0212468430399895 -16912444.5525688193738461 -8.0886934501734835 31.1921492968928646 0.8131256044009081
5097600.0000000000000000 126587420.7011144459247589 44583738.3251861855387688 -16838801.4943964891135693 -8.6780416601422665 30.9914146263541532 0.8914686149263498
5184000.0000000000000000 125812382.4883089959621429 47252305.7633589655160904 -16758417.5898908749222755 -9.2616879628960476 30.7790584033496515 0.9691583911074191
5270400.0000000000000000 124987171.8840067684650421 49902030.3365261629223824 -16671350.6456510387361050 -9.8394017603036303 30.5552689710274947 1.0461634313566899
5356800.0000000000000000 124112311.1665298342704773 52531932.5152781903743744 -16577661.1521588135510683 -10.4109594597914423 30.3202391837625740 1.1224531120901138
5443200.0000000000000000 123188341.6278716474771500 55141049.6172536537051201 -16477412.2074913140386343 -10.9761445310396368 30.0741661169452037 1.1979976973554329
5529600.0000000000000000 122215822.9615227580070496 57728436.1593789607286453 -16370669.4402733221650124 -11.5347475501195813 29.8172507791030164 1.2727683468061735
5616000.0000000000000000 121195332.6470123827457428 60293164.1853579506278038 -16257500.9320106729865074 -12.0865662314218785 29.5496978269135688 1.3467371220624029
5702400.0000000000000000 120127465.3322060704231262 62834323.5686814263463020 -16137977.1389422379434109 -12.6314054477451485 29.2717152836343146 1.4198769915024261
5788800.0000000000000000 119012832.2143650650978088 65351022.2914749607443810 -16012170.8135439716279507 -13.1690772389366000 28.9835142614441637 1.4921618335325602
5875200.0000000000000000 117852060.4209388941526413 67842386.6995427310466766 -15880156.9258144162595272 -13.6994008094924311 28.6853086881590009 1.5635664383845815
5961600.0000000000000000 116645792.3910270035266876 70307561.7340045571327209 -15742012.5844666548073292 -14.2222025155413458 28.3773150387506305 1.6340665084926866
6048000.0000000000000000 115394685.2584084421396255 72745711.1399568915367126 -15597816.9581471718847752 -14.7373158416467316 28.0597520720663312 1.7036386575036520
6134400.0000000000000000 114099410.2369991093873978 75156017.6526255756616592 -15447651.1967972274869680 -15.2445813678743356 27.7328405731134175 1.7722604079756035
6220800.0000000000000000 112760652.0095587074756622 77537683.1615039557218552 -15291598.3532677106559277 -15.7438467275796423 27.3968031012412219 1.8399101878220072
6307200.0000000000000000 111379108.1204295605421066 79889928.8529992699623108 -15129743.3052933886647224 -16.2349665563756389 27.0518637445210572 1.9065673255585995
6393600.0000000000000000 109955488.3730482459068298 82211995.3321356475353241 -14962172.6779273673892021 -16.7178024327461259 26.6982478805931613 1.9722120444117772
6480000.0000000000000000 108490514.2329330444335938 84503142.7238817811012268 -14788974.7665317282080650 -17.1922228107710637 26.3361819442193905 2.0368254553474006
6566400.0000000000000000 106984918.2368071675300598 86762650.7546933591365814 -14610239.4604148771613836 -17.6581029454319669 25.9658932017498714 2.1003895490793765
6652800.0000000000000000 105439443.4084799587726593 88989818.8148731142282486 -14426058.1672014072537422 -18.1153248109625551 25.5876095326836364 2.1628871871172510
6739200.0000000000000000 103854842.6820659339427948 91183966.0023715645074844 -14236523.7380147390067577 -18.5637770127087194 25.2015592184738821 2.2243020919121173
6825600.0000000000000000 102231878.3330833017826080 93344431.1486564278602600 -14041730.3935480508953333 -19.0033546929555008 24.8079707387025508 2.2846188361595186
6912000.0000000000000000 100571321.4179299771785736 95470572.8272985517978668 -13841773.6510933283716440 -19.4339594311754560 24.4070725747210062 2.3438228313177909
6998400.0000000000000000 98873951.2222199589014053 97561769.3458959311246872 -13636750.2525963336229324 -19.8554991391385478 23.9990930208348132 2.4019003153986107
7084800.0000000000000000 97140554.7183517813682556 99617418.7220578193664551 -13426758.0937913823872805 -20.2678879513349059 23.5842600030687137 2.4588383400882701
7171200.0000000000000000 95371926.0327719002962112 101636938.6440085172653198 -13211896.1544806975871325 -20.6710461111188266 23.1628009055564945 2.5146247572525486
7257600.0000000000000000 93568865.9232223033905029 103619766.4165487140417099 -12992264.4300016127526760 -21.0648998530080931 22.7349424045457518 2.5692482048818173
7344000.0000000000000000 91732181.2663137763738632 105565358.8929970860481262 -12767963.8639310244470835 -21.4493812815381517 22.3009103100084758 2.6226980925285099
7430400.0000000000000000 89862684.5557016730308533 107473192.3937740176916122 -12539096.2820681650191545 -21.8244282470675017 21.8609294148220137 2.6749645862888793
7516800.0000000000000000 87961193.4111090451478958 109342762.6122802048921585 -12305764.3277327753603458 -22.1899842189167593 21.4152233514677377 2.7260385933792763
7603200.0000000000000000 86028530.0984127670526505 111173584.5087163150310516 -12068071.3984116408973932 -22.5459981562109242 20.9640144561787629 2.7759117463556398
7689600.0000000000000000 84065521.0609747171401978 112965192.1924840956926346 -11826121.5837822351604700 -22.8924243767807134 20.5075236404521917 2.8245763870232161
7776000.0000000000000000 82072996.4623727053403854 114717138.7937997877597809 -11580019.6051384620368481 -23.2292224244650498 20.0459702698278477 2.8720255500818341
7862400.0000000000000000 80051789.7406518757343292 116428996.3251452893018723 -11329870.7562390901148319 -23.5563569351429862 19.5795720498212944 2.9182529465503881
7948800.0000000000000000 78002737.1741961687803268 118100355.5331675410270691 -11075780.8455965127795935 -23.8737975018083972 19.1085449188886400 2.9632529470122959
8035200.0000000000000000 75926677.4592867046594620 119730825.7416297644376755 -10817856.1402192767709494 -24.1815185389869676 18.6331029482883430 3.0070205647220010
8121600.0000000000000000 73824451.2993929982185364 121320034.6860030889511108 -10556203.3108188677579165 -24.4794991467799896 18.1534582486967828 3.0495514386107017
8208000.0000000000000000 71696901.0062174946069717 122867628.3402762711048126 -10290929.3784878477454185 -24.7677229748051637 17.6698208834251709 3.0908418162276865
8294400.0000000000000000 69544870.1124899983406067 124373270.7365471273660660 -10022141.6628533471375704 -25.0461780862901335 17.1823987880777871 3.1308885366518373
8380800.0000000000000000 67369202.9964901953935623 125836643.7779438346624374 -9749947.7317072004079819 -25.3148568225599817 16.6913976964854918 3.1696890134060114
8467200.0000000000000000 65170744.5182520151138306 127257447.0454129874706268 -9474455.3521109092980623 -25.5737556681459282 16.1970210727418085 3.2072412174052478
8553600.0000000000000000 62950339.6673891469836235 128635397.5988916456699371 -9195772.4429714884608984 -25.8228751167281665 15.6994700491652956 3.2435436599679037
8640000.0000000000000000 60708833.2224590182304382 129970229.7733698934316635 -8914007.0290813520550728 -26.0622195381123163 15.1989433700068375 3.2785953759171171
8726400.0000000000000000 58447069.4217690378427505 131261694.9703304469585419 -8629267.1966134402900934 -26.2917970464253088 14.6956373407181928 3.3123959067982192
8812800.0000000000000000 56165891.6455112248659134 132509561.4450394511222839 -8341661.0500604249536991 -26.5116193697034355 14.1897457825952635 3.3449452842360503
8899200.0000000000000000 53866142.1090996786952019 133713614.0901429504156113 -8051296.6706051416695118 -26.7217017210322183 13.6814599926082998 3.3762440134544320
8985600.0000000000000000 51548661.5675680339336395 134873654.2160104513168335 -7758282.0759070347994566 -26.9220626713858024 13.1709687082296583 3.4062930569784995
9072000.0000000000000000 49214289.0308751165866852 135989499.3282491862773895 -7462725.1812881091609597 -27.1127240243010093 12.6584580770697137 3.4350938185389692
9158400.0000000000000000 46863861.4899564236402512 137060982.9027944803237915 -7164733.7623003851622343 -27.2937106925095136 12.1441116311321391 3.4626481271958864
9244800.0000000000000000 44498213.6533445864915848 138087954.1589699089527130 -6864415.4186548059806228 -27.4650505766408628 11.6281102654993020 3.4889582216979984
9331200.0000000000000000 42118177.6941771134734154 139070277.8308897018432617 -6561877.5394908506423235 -27.6267744460974498 11.1106322212608752 3.5140267350923762
9417600.0000000000000000 39724583.0073993504047394 140007833.9375630915164948 -6257227.2699645608663559 -27.7789158221927934 10.5918530724998838 3.5378566795976196
9504000.0000000000000000 37318255.9769641980528831 140900517.5520427525043488 -5950571.4791317963972688 -27.9215108636340403 10.0719457171526727 3.5604514317526057
9590400.0000000000000000 34900019.7528208866715431 141748238.5699446499347687 -5642016.7291021449491382 -28.0545982544204726 9.5510803715612180 3.5818147178515369
9676800.0000000000000000 32470694.0374843925237656 142550921.4776498675346375 -5331669.2454387759789824 -28.1782190942202426 9.0294245685400512 3.6019505996747689
9763200.0000000000000000 30031094.8819656744599342 143308505.1204852461814880 -5019634.8887778548523784 -28.2924167912794218 8.5071431587817870 3.6208634605238288
9849600.0000000000000000 27582034.4908446967601776 144020942.4711635708808899 -4706019.1276412587612867 -28.3972369579088166 7.9843983154297664 3.6385579915678576
9936000.0000000000000000 25124321.0362601205706596 144688200.3987489342689514 -4390927.0124152442440391 -28.4927273085864528 7.4613495416492706 3.6550391785077379
10022400.0000000000000000 22658758.4805878475308418 145310259.4384008944034576 -4074463.1504672644659877 -28.5789375607063292 6.9381536810323556 3.6703122885631392
10108800.0000000000000000 20186146.4075824916362762 145887113.5621333122253418 -3756731.6823733728379011 -28.6559193379967496 6.4149649306767120 3.6843828577867899
10195200.0000000000000000 17707279.8617500439286232 146418769.9508121311664581 -3437836.2592277387157083 -28.7237260766255247 5.8919348567818339 3.6972566787093886
10281600.0000000000000000 15222949.1956925392150879 146905248.7676095664501190 -3117880.0210021445527673 -28.7824129340035171 5.3692124126046554 3.7089397883179207
